* Measurement data measured by REW V5.30
* Source: Frequency response averaged data
* Format: Averaged data produced from the rms magnitudes of Max5c (Classic ANC Off) L1, Max5c (Classic ANC Off) L2, Max5c (Classic ANC Off) L3, Max5c (Classic ANC Off) L1, Max5c (Classic ANC Off) R2, Max5c (Classic ANC Off) R3
* Dated: Oct 18, 2024 7:41:05 PM
* REW Settings:
*  C-weighting compensation: Off
*  Target level: 75.0 dB
* Note: ; Averaged data produced from the rms magnitudes of Max5c (Classic ANC Off) L1, Max5c (Classic ANC Off) L2, Max5c (Classic ANC Off) L3, Max5c (Classic ANC Off) L1, Max5c (Classic ANC Off) R2, Max5c (Classic ANC Off) R3
* Measurement: Max5c (Classic ANC Off) Av
* Smoothing: 1/24 octave
* Frequency Step: 1/48 octave
* Start Frequency: 20.300 Hz
*
* Freq(Hz) SPL(dB)
20.299999 76.230
20.600000 76.341
20.900000 76.562
21.200001 76.768
21.400000 76.895
21.799999 77.128
22.000000 77.239
22.400000 77.451
22.700001 77.614
23.000000 77.790
23.299999 77.983
23.600000 78.188
24.000000 78.464
24.299999 78.660
24.700001 78.895
25.000000 79.054
25.400000 79.255
25.799999 79.461
26.200001 79.679
26.500000 79.848
26.900000 80.069
27.200001 80.227
27.600000 80.428
28.000000 80.627
28.500000 80.887
29.000000 81.162
29.500000 81.432
30.000000 81.676
30.400000 81.853
30.700001 81.980
31.100000 82.152
31.500000 82.331
32.000000 82.566
32.500000 82.809
33.000000 83.051
33.500000 83.292
34.000000 83.531
34.500000 83.761
35.000000 83.977
35.500000 84.175
36.000000 84.356
36.500000 84.530
37.000000 84.710
37.500000 84.900
38.200001 85.169
38.700001 85.353
39.500000 85.638
40.000000 85.815
40.599998 86.022
41.200001 86.218
41.799999 86.409
42.500000 86.638
43.099998 86.835
43.700001 87.017
44.400002 87.209
45.000000 87.372
45.500000 87.512
46.200001 87.710
46.799999 87.871
47.500000 88.040
48.200001 88.190
48.700001 88.286
49.400002 88.409
50.000000 88.510
50.799999 88.641
51.500000 88.748
52.200001 88.846
53.000000 88.944
53.799999 89.013
54.500000 89.040
55.200001 89.054
56.000000 89.072
57.000000 89.079
58.000000 89.063
59.000000 89.034
60.000000 88.996
60.799999 88.974
61.500000 88.955
62.200001 88.926
63.000000 88.892
64.000000 88.882
65.000000 88.901
66.000000 88.926
67.000000 88.957
68.000000 89.017
69.000000 89.101
70.000000 89.189
71.000000 89.289
72.000000 89.394
73.000000 89.476
74.000000 89.508
75.000000 89.482
76.199997 89.379
77.500000 89.187
78.800003 88.925
80.000000 88.648
81.199997 88.363
82.500000 88.047
83.800003 87.725
85.000000 87.437
86.199997 87.161
87.500000 86.878
88.500000 86.672
90.000000 86.378
91.199997 86.153
92.500000 85.911
93.800003 85.668
95.000000 85.441
96.199997 85.207
97.500000 84.940
98.800003 84.652
100.000000 84.375
101.500000 84.017
103.000000 83.630
104.400002 83.237
106.000000 82.771
107.500000 82.332
109.000000 81.901
110.599998 81.463
112.000000 81.107
113.800003 80.686
115.000000 80.431
117.199997 80.017
118.000000 79.886
120.599998 79.559
122.000000 79.453
124.099998 79.384
125.000000 79.391
126.500000 79.458
128.000000 79.586
131.500000 80.018
132.000000 80.091
134.000000 80.401
136.000000 80.721
138.000000 81.044
140.000000 81.355
143.000000 81.753
145.000000 81.962
147.500000 82.221
150.000000 82.442
152.500000 82.623
155.000000 82.791
157.500000 82.945
160.000000 83.087
162.500000 83.206
165.000000 83.315
167.500000 83.406
170.000000 83.491
172.500000 83.554
175.000000 83.582
177.500000 83.572
180.000000 83.531
182.500000 83.466
185.000000 83.395
187.500000 83.316
190.000000 83.221
192.500000 83.123
195.000000 83.040
197.500000 82.974
200.000000 82.917
203.000000 82.841
206.000000 82.757
209.000000 82.669
212.000000 82.571
214.000000 82.501
218.000000 82.349
220.000000 82.264
224.000000 82.083
227.000000 81.934
230.000000 81.773
233.000000 81.601
236.000000 81.421
240.000000 81.200
243.000000 81.056
247.000000 80.881
250.000000 80.744
254.000000 80.554
258.000000 80.377
262.000000 80.223
265.000000 80.119
269.000000 79.993
272.000000 79.905
276.000000 79.796
280.000000 79.702
285.000000 79.600
290.000000 79.489
295.000000 79.365
300.000000 79.235
304.000000 79.126
307.000000 79.042
311.000000 78.929
315.000000 78.826
320.000000 78.742
325.000000 78.751
330.000000 78.855
335.000000 78.987
340.000000 79.084
345.000000 79.147
350.000000 79.207
355.000000 79.259
360.000000 79.259
365.000000 79.186
370.000000 79.058
375.000000 78.909
382.000000 78.710
387.000000 78.587
395.000000 78.436
400.000000 78.370
406.000000 78.329
412.000000 78.318
418.000000 78.317
425.000000 78.319
431.000000 78.301
437.000000 78.250
444.000000 78.158
450.000000 78.091
455.000000 78.091
462.000000 78.195
468.000000 78.310
475.000000 78.396
482.000000 78.419
487.000000 78.407
494.000000 78.368
500.000000 78.326
508.000000 78.265
515.000000 78.211
522.000000 78.162
530.000000 78.109
538.000000 78.055
545.000000 78.007
552.000000 77.965
560.000000 77.922
570.000000 77.874
580.000000 77.829
590.000000 77.781
600.000000 77.736
608.000000 77.709
615.000000 77.694
622.000000 77.689
630.000000 77.694
640.000000 77.712
650.000000 77.743
660.000000 77.782
670.000000 77.827
680.000000 77.888
690.000000 77.968
700.000000 78.061
710.000000 78.164
720.000000 78.275
730.000000 78.394
740.000000 78.520
750.000000 78.653
762.000000 78.822
775.000000 79.016
788.000000 79.216
800.000000 79.403
812.000000 79.583
825.000000 79.759
838.000000 79.914
850.000000 80.042
862.000000 80.160
875.000000 80.289
885.000000 80.393
900.000000 80.547
912.000000 80.646
925.000000 80.720
938.000000 80.763
950.000000 80.778
962.000000 80.775
975.000000 80.774
988.000000 80.785
1000.000000 80.798
1015.000000 80.817
1030.000000 80.846
1044.000000 80.880
1060.000000 80.921
1075.000000 80.962
1090.000000 81.004
1106.000000 81.044
1120.000000 81.071
1138.000000 81.091
1150.000000 81.092
1172.000000 81.062
1180.000000 81.042
1206.000000 80.977
1220.000000 80.957
1241.000000 80.932
1250.000000 80.914
1265.000000 80.879
1280.000000 80.849
1315.000000 80.820
1320.000000 80.819
1340.000000 80.827
1360.000000 80.849
1380.000000 80.882
1400.000000 80.918
1430.000000 80.967
1450.000000 81.002
1475.000000 81.053
1500.000000 81.110
1525.000000 81.178
1550.000000 81.263
1575.000000 81.367
1600.000000 81.489
1625.000000 81.605
1650.000000 81.671
1675.000000 81.695
1700.000000 81.737
1725.000000 81.858
1750.000000 82.283
1775.000000 83.330
1800.000000 84.661
1825.000000 85.561
1850.000000 85.916
1875.000000 86.019
1900.000000 86.078
1925.000000 86.144
1950.000000 86.222
1975.000000 86.317
2000.000000 86.434
2030.000000 86.605
2060.000000 86.812
2090.000000 87.022
2120.000000 87.203
2140.000000 87.326
2180.000000 87.605
2200.000000 87.747
2240.000000 88.018
2270.000000 88.223
2300.000000 88.431
2330.000000 88.640
2360.000000 88.850
2400.000000 89.125
2430.000000 89.326
2470.000000 89.583
2500.000000 89.763
2540.000000 89.981
2580.000000 90.178
2620.000000 90.361
2650.000000 90.477
2690.000000 90.596
2720.000000 90.655
2760.000000 90.708
2800.000000 90.762
2850.000000 90.886
2900.000000 91.101
2950.000000 91.340
3000.000000 91.519
3040.000000 91.601
3070.000000 91.646
3110.000000 91.718
3150.000000 91.825
3200.000000 91.947
3250.000000 91.953
3300.000000 91.844
3350.000000 91.611
3400.000000 91.275
3450.000000 90.869
3500.000000 90.440
3550.000000 90.177
3600.000000 90.360
3650.000000 90.919
3700.000000 91.540
3750.000000 92.018
3820.000000 92.167
3870.000000 91.770
3950.000000 90.535
4000.000000 89.638
4060.000000 88.599
4120.000000 87.685
4180.000000 86.976
4250.000000 86.492
4310.000000 86.371
4370.000000 86.429
4440.000000 86.574
4500.000000 86.667
4550.000000 86.673
4620.000000 86.523
4680.000000 86.233
4750.000000 85.728
4820.000000 85.102
4870.000000 84.631
4940.000000 84.039
5000.000000 83.690
5080.000000 83.550
5150.000000 83.767
5220.000000 84.263
5300.000000 85.092
5380.000000 85.892
5450.000000 86.301
5520.000000 86.275
5600.000000 85.741
5700.000000 84.847
5800.000000 84.285
5900.000000 84.119
6000.000000 84.198
6080.000000 84.356
6150.000000 84.514
6220.000000 84.653
6300.000000 84.760
6400.000000 84.783
6500.000000 84.660
6600.000000 84.379
6700.000000 83.961
6800.000000 83.463
6900.000000 82.975
7000.000000 82.594
7100.000000 82.346
7200.000000 82.185
7300.000000 82.043
7400.000000 81.863
7500.000000 81.590
7620.000000 81.104
7750.000000 80.481
7880.000000 79.952
8000.000000 79.681
8120.000000 79.763
8250.000000 80.425
8380.000000 81.687
8500.000000 83.150
8620.000000 84.625
8750.000000 85.930
8850.000000 86.470
9000.000000 86.262
9120.000000 85.349
9250.000000 83.991
9380.000000 82.599
9500.000000 81.462
9620.000000 80.515
9750.000000 79.734
9880.000000 79.362
10000.000000 79.525
10150.000000 80.400
10300.000000 81.795
10440.000000 83.296
10600.000000 85.010
10750.000000 86.413
10900.000000 87.309
11060.000000 87.323
11200.000000 86.409
11380.000000 84.249
11500.000000 82.526
11720.000000 79.731
11800.000000 79.013
12060.000000 77.747
12200.000000 77.546
12410.000000 77.840
12500.000000 78.253
12650.000000 79.294
12800.000000 80.500
13150.000000 82.498
13200.000000 82.637
13400.000000 82.766
13600.000000 82.244
13800.000000 81.348
14000.000000 80.549
14300.000000 80.041
14500.000000 80.051
14750.000000 80.178
15000.000000 79.913
15250.000000 79.053
15500.000000 78.041
15750.000000 76.988
16000.000000 75.693
16250.000000 74.270
16500.000000 73.017
16750.000000 72.179
17000.000000 71.789
17250.000000 71.365
17500.000000 69.937
17750.000000 67.259
18000.000000 64.130
18250.000000 62.286
18500.000000 63.131
18750.000000 65.233
19000.000000 66.953
19250.000000 67.791
19500.000000 67.787
19750.000000 67.282
